wavelength,absorption
280,7.371986945305535
285,7.211105650341505
290,7.050224355377476
295,6.889343060413447
300,6.728461765449417
305,6.567580470485388
310,6.406699175521359
315,6.245817880557329
320,6.084936585593301
325,5.924055290629271
330,5.763173995665242
335,5.602292700701213
340,5.441411405737183
345,5.280530110773154
350,5.119648815809125
355,4.958767520845095
360,4.797886225881066
365,4.637004930917037
370,4.476123635953007
375,4.315242340988978
380,4.154361046024949
385,3.99347975106092
390,3.8325984560968895
395,3.671717161132861
400,3.510835866168832
405,3.3499545712048024
410,3.189073276240773
415,2.97190388526191
420,2.787755866168831
425,2.63868586616883
430,2.535020021204476
435,2.4467807401521617
440,2.35949510087808
445,2.274235986687058
450,2.188976872496036
455,2.104949866570947
460,2.0341117860133435
465,1.9632737054557403
470,1.892435624898137
475,1.828549964991412
480,1.773158498754117
485,1.7177670325168215
490,1.6623755662795268
495,1.6069841000422318
500,1.5581844425694678
505,1.5136347253557587
510,1.4690850081420497
515,1.4245352909283406
520,1.3799855737146318
525,1.3432302231069562
530,1.3124070355395734
535,1.2815838479721906
540,1.2507606604048078
545,1.219937472837425
550,1.1891142852700425
555,1.1582910977026597
560,1.1274679101352765
565,1.0966447225678937
570,1.0646334085912992
575,1.0298820920319078
580,0.9951307754725164
585,0.9603794589131248
590,0.9256281423537336
595,0.8908768257943421
600,0.8561958597187778
605,0.8226838061833427
610,0.7891717526479076
615,0.7556596991124727
620,0.7221476455770376
625,0.6886355920416025
630,0.6551235385061674
635,0.6216114849707324
640,0.5880994314352974
645,0.5545873778998623
650,0.5217729751854281
655,0.488964776002844
660,0.45615657682026
665,0.4233483776376761
670,0.390540178455092
675,0.3590192449997755
680,0.3348389055969669
685,0.3106585661941583
690,0.2864782267913497
695,0.262297887388541
700,0.2381175479857324
705,0.2139372085829238
710,0.1897568691801152
715,0.1655765297773065
720,0.1492061193333868
725,0.1409010115406653
730,0.1325959037479437
735,0.1242907959552222
740,0.1159856881625006
745,0.1076805803697791
750,0.0993754725770575
755,0.0910703647843359
760,0.0827652569916144
765,0.0744601491988928
770,0.0685826540096318
775,0.0640871980397164
780,0.0595917420698011
785,0.0550962860998857
790,0.0506008301299703
795,0.046105374160055
800,0.0416099181901396
805,0.0371144622202242
810,0.0326190062503089
815,0.0281235502803935
820,0.0236280943104781
825,0.0191326383405627
830,0.0146371823706474
835,0.010141726400732
840,0.0056462704308166
845,0.0011508144609013
850,0.0
855,0.0
860,0.0
865,0.0
870,0.0
875,0.0
880,0.0
885,0.0
890,0.0
895,0.0
900,0.0
905,0.0
910,0.0
915,0.0
920,0.0
925,0.0
930,0.0
935,0.0
940,0.0
945,0.0
950,0.0
955,0.0
960,0.0
965,0.0
970,0.0
975,0.0
980,0.0
985,0.0
990,0.0
995,0.0
1000,0.0
1005,0.0
1010,0.0
1015,0.0
1020,0.0
1025,0.0
1030,0.0
1035,0.0
1040,0.0
1045,0.0
1050,0.0
1055,0.0
1060,0.0
1065,0.0
1070,0.0
1075,0.0
1080,0.0
1085,0.0
1090,0.0
1095,0.0
1100,0.0
1105,0.0
1110,0.0
1115,0.0
1120,0.0
1125,0.0
1130,0.0
1135,0.0
1140,0.0
1145,0.0
1150,0.0
1155,0.0
1160,0.0
1165,0.0
1170,0.0
1175,0.0
1180,0.0
1185,0.0
1190,0.0
1195,0.0
1200,0.0
1205,0.0
1210,0.0
1215,0.0
1220,0.0
1225,0.0
1230,0.0
1235,0.0
1240,0.0
1245,0.0
1250,0.0
1255,0.0
1260,0.0
1265,0.0
1270,0.0
1275,0.0
1280,0.0
1285,0.0
1290,0.0
1295,0.0
1300,0.0
1305,0.0
1310,0.0
1315,0.0
1320,0.0
1325,0.0
1330,0.0
1335,0.0
1340,0.0
1345,0.0
1350,0.0
1355,0.0
1360,0.0
1365,0.0
1370,0.0
1375,0.0
1380,0.0
1385,0.0
1390,0.0
1395,0.0
1400,0.0
1405,0.0
1410,0.0
1415,0.0
1420,0.0
1425,0.0
1430,0.0
1435,0.0
1440,0.0
1445,0.0
1450,0.0
1455,0.0
1460,0.0
1465,0.0
1470,0.0
1475,0.0
1480,0.0
1485,0.0
1490,0.0
1495,0.0
1500,0.0
