wavelength,absorption
280,0.907004376367616
285,0.8888446389496729
290,0.8706849015317297
295,0.8525251641137865
300,0.8343654266958433
305,0.8162056892779002
310,0.7980459518599571
315,0.7798862144420139
320,0.7617264770240708
325,0.7435667396061276
330,0.7254070021881844
335,0.7072472647702412
340,0.6890875273522981
345,0.670927789934355
350,0.6527680525164118
355,0.6346083150984687
360,0.6164485776805255
365,0.5982888402625823
370,0.5801291028446391
375,0.5619693654266961
380,0.5438096280087529
385,0.5256498905908097
390,0.5074901531728666
395,0.4893304157549234
400,0.4711706783369802
405,0.4530109409190371
410,0.4345768052516409
415,0.4116026258205688
420,0.3892537006049684
425,0.371764705882353
430,0.3542757111597375
435,0.3386860393873085
440,0.3232798249452954
445,0.3078736105032822
450,0.2963426070647077
455,0.2866895904970303
460,0.277036573929353
465,0.2673835573616756
470,0.2579132449478699
475,0.2495662247393488
480,0.2412192045308277
485,0.2328721843223066
490,0.2245251641137856
495,0.2195575006078288
500,0.2158035497203987
505,0.2120495988329686
510,0.2082956479455385
515,0.2045416970581084
520,0.2007877461706783
525,0.1970337952832482
530,0.1926605837909252
535,0.1880708476115767
540,0.1834811114322282
545,0.1788913752528798
550,0.1743016390735313
555,0.1697119028941828
560,0.1651221667148343
565,0.1594798374492029
570,0.1536880275085964
575,0.14789621756799
580,0.1407439824945295
585,0.1294821298322392
590,0.118220277169949
595,0.1074963975022683
600,0.1000800555051503
605,0.0926637135080323
610,0.0852473715109143
615,0.0778310295137963
620,0.0704146875166784
625,0.0635448577680526
630,0.0567877461706785
635,0.0500306345733043
640,0.0446039387308535
645,0.0400991976659373
650,0.0355944566010212
655,0.031089715536105
660,0.0265849744711888
665,0.0236944499701611
670,0.0209301770439626
675,0.0181659041177641
680,0.0154016311915656
685,0.012637358265367
690,0.0101335667396061
695,0.0085118599562363
700,0.0068901531728665
705,0.0052684463894967
710,0.0036467396061269
715,0.0020250328227571
720,0.0004033260393873
725,0.0
730,0.0
735,0.0
740,0.0
745,0.0
750,0.0
755,0.0
760,0.0
765,0.0
770,0.0
775,0.0
780,0.0
785,0.0
790,0.0
795,0.0
800,0.0
805,0.0
810,0.0
815,0.0
820,0.0
825,0.0
830,0.0
835,0.0
840,0.0
845,0.0
850,0.0
855,0.0
860,0.0
865,0.0
870,0.0
875,0.0
880,0.0
885,0.0
890,0.0
895,0.0
900,0.0
905,0.0
910,0.0
915,0.0
920,0.0
925,0.0
930,0.0
935,0.0
940,0.0
945,0.0
950,0.0
955,0.0
960,0.0
965,0.0
970,0.0
975,0.0
980,0.0
985,0.0
990,0.0
995,0.0
1000,0.0
1005,0.0
1010,0.0
1015,0.0
1020,0.0
1025,0.0
1030,0.0
1035,0.0
1040,0.0
1045,0.0
1050,0.0
1055,0.0
1060,0.0
1065,0.0
1070,0.0
1075,0.0
1080,0.0
1085,0.0
1090,0.0
1095,0.0
1100,0.0
1105,0.0
1110,0.0
1115,0.0
1120,0.0
1125,0.0
1130,0.0
1135,0.0
1140,0.0
1145,0.0
1150,0.0
1155,0.0
1160,0.0
1165,0.0
1170,0.0
1175,0.0
1180,0.0
1185,0.0
1190,0.0
1195,0.0
1200,0.0
1205,0.0
1210,0.0
1215,0.0
1220,0.0
1225,0.0
1230,0.0
1235,0.0
1240,0.0
1245,0.0
1250,0.0
1255,0.0
1260,0.0
1265,0.0
1270,0.0
1275,0.0
1280,0.0
1285,0.0
1290,0.0
1295,0.0
1300,0.0
1305,0.0
1310,0.0
1315,0.0
1320,0.0
1325,0.0
1330,0.0
1335,0.0
1340,0.0
1345,0.0
1350,0.0
1355,0.0
1360,0.0
1365,0.0
1370,0.0
1375,0.0
1380,0.0
1385,0.0
1390,0.0
1395,0.0
1400,0.0
1405,0.0
1410,0.0
1415,0.0
1420,0.0
1425,0.0
1430,0.0
1435,0.0
1440,0.0
1445,0.0
1450,0.0
1455,0.0
1460,0.0
1465,0.0
1470,0.0
1475,0.0
1480,0.0
1485,0.0
1490,0.0
1495,0.0
1500,0.0
