wavelength,absorption
280,0.3416480013247426
285,0.3366019400350263
290,0.33155587874531
295,0.3265098174555937
300,0.3214637561658775
305,0.3164176948761612
310,0.311371633586445
315,0.3063255722967287
320,0.3012795110070124
325,0.2962334497172962
330,0.2911873884275799
335,0.2861413271378636
340,0.2810952658481474
345,0.2760492045584311
350,0.2710031432687149
355,0.2659570819789986
360,0.2609110206892823
365,0.2558649593995661
370,0.2508188981098498
375,0.2457728368201335
380,0.2407267755304173
385,0.235680714240701
390,0.2306346529509848
395,0.2255885916612685
400,0.2205425303715522
405,0.2154964690818359
410,0.2104504077921197
415,0.2054043465024034
420,0.1978233835405764
425,0.1850250451719964
430,0.1722267068034163
435,0.1594283684348363
440,0.1479199123682231
445,0.1381747126230234
450,0.1284295128778237
455,0.1186843131326239
460,0.1089391133874242
465,0.099130215743475
470,0.086399578682941
475,0.0736689416224071
480,0.0609383045618731
485,0.0506854223229071
490,0.0461426161956635
495,0.0415998100684198
500,0.0370570039411761
505,0.0325141978139324
510,0.0283288038630142
515,0.0287146956589546
520,0.0291005874548951
525,0.0294864792508355
530,0.0298723710467759
535,0.0302582628427163
540,0.0306441546386567
545,0.0331276820032374
550,0.0364927689286959
555,0.0398578558541543
560,0.0432229427796128
565,0.0465880297050712
570,0.0499531166305297
575,0.0547301458168748
580,0.0608496268798586
585,0.0669691079428425
590,0.0730885890058264
595,0.0792080700688102
600,0.0888349458859964
605,0.0992589511045222
610,0.1096829563230479
615,0.1201069615415736
620,0.1305309667600994
625,0.1446837256232645
630,0.1620066625953244
635,0.1793295995673842
640,0.1966525365394441
645,0.2140161318542739
650,0.2523879859888397
655,0.290150079250324
660,0.3215939098212265
665,0.353037740392129
670,0.3822884793977681
675,0.4085000128862604
680,0.4314863948620416
685,0.4514777443430106
690,0.4714690938239795
695,0.4916933974325331
700,0.5138136670022582
705,0.5359339365719833
710,0.5580542061417083
715,0.5931524337273267
720,0.6546359328951324
725,0.7073134241399585
730,0.7767787780691937
735,0.8522191539333259
740,0.9171774934889227
745,0.9598045242528356
750,0.9832906677389792
755,0.9824432374283272
760,0.9647228928292552
765,0.9357085595501964
770,0.887087056348309
775,0.7752840930808599
780,0.7090318244783194
785,0.5890412795610196
790,0.4550021605444074
795,0.3533810745356876
800,0.2343550717445582
805,0.1674956925550009
810,0.1227380397744198
815,0.0976292249943976
820,0.0725204102143754
825,0.0419647699497019
830,0.0
835,0.0
840,0.0
845,0.0
850,0.0
855,0.0
860,0.0
865,0.0
870,0.0
875,0.0
880,0.0
885,0.0
890,0.0
895,0.0
900,0.0
905,0.0
910,0.0
915,0.0
920,0.0
925,0.0
930,0.0
935,0.0
940,0.0
945,0.0
950,0.0
955,0.0
960,0.0
965,0.0
970,0.0
975,0.0
980,0.0
985,0.0
990,0.0
995,0.0
1000,0.0
1005,0.0
1010,0.0
1015,0.0
1020,0.0
1025,0.0
1030,0.0
1035,0.0
1040,0.0
1045,0.0
1050,0.0
1055,0.0
1060,0.0
1065,0.0
1070,0.0
1075,0.0
1080,0.0
1085,0.0
1090,0.0
1095,0.0
1100,0.0
1105,0.0
1110,0.0
1115,0.0
1120,0.0
1125,0.0
1130,0.0
1135,0.0
1140,0.0
1145,0.0
1150,0.0
1155,0.0
1160,0.0
1165,0.0
1170,0.0
1175,0.0
1180,0.0
1185,0.0
1190,0.0
1195,0.0
1200,0.0
1205,0.0
1210,0.0
1215,0.0
1220,0.0
1225,0.0
1230,0.0
1235,0.0
1240,0.0
1245,0.0
1250,0.0
1255,0.0
1260,0.0
1265,0.0
1270,0.0
1275,0.0
1280,0.0
1285,0.0
1290,0.0
1295,0.0
1300,0.0
1305,0.0
1310,0.0
1315,0.0
1320,0.0
1325,0.0
1330,0.0
1335,0.0
1340,0.0
1345,0.0
1350,0.0
1355,0.0
1360,0.0
1365,0.0
1370,0.0
1375,0.0
1380,0.0
1385,0.0
1390,0.0
1395,0.0
1400,0.0
1405,0.0
1410,0.0
1415,0.0
1420,0.0
1425,0.0
1430,0.0
1435,0.0
1440,0.0
1445,0.0
1450,0.0
1455,0.0
1460,0.0
1465,0.0
1470,0.0
1475,0.0
1480,0.0
1485,0.0
1490,0.0
1495,0.0
1500,0.0
